wavelength   n   k
4.892429e-01 2.575655e+00 3.021482e-02
4.892548e-01 2.575650e+00 3.021298e-02
4.892668e-01 2.575645e+00 3.021114e-02
4.892788e-01 2.575639e+00 3.020930e-02
4.892907e-01 2.575634e+00 3.020746e-02
4.893027e-01 2.575628e+00 3.020562e-02
4.893147e-01 2.575623e+00 3.020378e-02
4.893267e-01 2.575617e+00 3.020193e-02
4.893386e-01 2.575612e+00 3.020009e-02
4.893506e-01 2.575606e+00 3.019825e-02
4.893626e-01 2.575601e+00 3.019641e-02
4.893746e-01 2.575596e+00 3.019457e-02
4.893865e-01 2.575590e+00 3.019273e-02
4.893985e-01 2.575585e+00 3.019089e-02
4.894105e-01 2.575579e+00 3.018905e-02
4.894225e-01 2.575574e+00 3.018720e-02
4.894344e-01 2.575568e+00 3.018536e-02
4.894464e-01 2.575563e+00 3.018352e-02
4.894584e-01 2.575558e+00 3.018168e-02
4.894704e-01 2.575552e+00 3.017984e-02
4.894823e-01 2.575547e+00 3.017800e-02
4.894943e-01 2.575541e+00 3.017616e-02
4.895063e-01 2.575536e+00 3.017432e-02
4.895183e-01 2.575530e+00 3.017247e-02
4.895302e-01 2.575525e+00 3.017063e-02
4.895422e-01 2.575519e+00 3.016879e-02
4.895542e-01 2.575514e+00 3.016695e-02
4.895662e-01 2.575509e+00 3.016511e-02
4.895781e-01 2.575503e+00 3.016327e-02
4.895901e-01 2.575498e+00 3.016143e-02
4.896021e-01 2.575492e+00 3.015959e-02
4.896141e-01 2.575487e+00 3.015774e-02
4.896260e-01 2.575481e+00 3.015590e-02
4.896380e-01 2.575476e+00 3.015406e-02
4.896500e-01 2.575471e+00 3.015222e-02
4.896620e-01 2.575465e+00 3.015038e-02
4.896739e-01 2.575460e+00 3.014854e-02
4.896859e-01 2.575454e+00 3.014670e-02
4.896979e-01 2.575449e+00 3.014486e-02
4.897099e-01 2.575443e+00 3.014301e-02
4.897218e-01 2.575438e+00 3.014117e-02
4.897338e-01 2.575432e+00 3.013933e-02
4.897458e-01 2.575427e+00 3.013749e-02
4.897577e-01 2.575422e+00 3.013565e-02
4.897697e-01 2.575416e+00 3.013381e-02
4.897817e-01 2.575411e+00 3.013197e-02
4.897937e-01 2.575405e+00 3.013013e-02
4.898056e-01 2.575400e+00 3.012828e-02
4.898176e-01 2.575394e+00 3.012644e-02
4.898296e-01 2.575389e+00 3.012460e-02
4.898416e-01 2.575384e+00 3.012276e-02
4.898535e-01 2.575378e+00 3.012092e-02
4.898655e-01 2.575373e+00 3.011908e-02
4.898775e-01 2.575367e+00 3.011724e-02
4.898895e-01 2.575362e+00 3.011540e-02
4.899014e-01 2.575356e+00 3.011355e-02
4.899134e-01 2.575351e+00 3.011171e-02
4.899254e-01 2.575346e+00 3.010987e-02
4.899374e-01 2.575340e+00 3.010803e-02
4.899493e-01 2.575335e+00 3.010619e-02
4.899613e-01 2.575329e+00 3.010435e-02
4.899733e-01 2.575324e+00 3.010251e-02
4.899853e-01 2.575318e+00 3.010067e-02
4.899972e-01 2.575313e+00 3.009882e-02
4.900092e-01 2.575307e+00 3.009698e-02
4.900212e-01 2.575302e+00 3.009514e-02
4.900332e-01 2.575297e+00 3.009330e-02
4.900451e-01 2.575291e+00 3.009146e-02
4.900571e-01 2.575286e+00 3.008962e-02
4.900691e-01 2.575280e+00 3.008778e-02
4.900811e-01 2.575275e+00 3.008594e-02
4.900930e-01 2.575269e+00 3.008409e-02
4.901050e-01 2.575264e+00 3.008225e-02
4.901170e-01 2.575259e+00 3.008041e-02
4.901290e-01 2.575253e+00 3.007857e-02
4.901409e-01 2.575248e+00 3.007673e-02
4.901529e-01 2.575242e+00 3.007489e-02
4.901649e-01 2.575237e+00 3.007305e-02
4.901769e-01 2.575231e+00 3.007121e-02
4.901888e-01 2.575226e+00 3.006936e-02
4.902008e-01 2.575220e+00 3.006752e-02
4.902128e-01 2.575215e+00 3.006568e-02
4.902247e-01 2.575210e+00 3.006384e-02
4.902367e-01 2.575204e+00 3.006200e-02
4.902487e-01 2.575199e+00 3.006016e-02
4.902607e-01 2.575193e+00 3.005832e-02
4.902726e-01 2.575188e+00 3.005648e-02
4.902846e-01 2.575182e+00 3.005463e-02
4.902966e-01 2.575177e+00 3.005279e-02
4.903086e-01 2.575172e+00 3.005095e-02
4.903205e-01 2.575166e+00 3.004911e-02
4.903325e-01 2.575161e+00 3.004727e-02
4.903445e-01 2.575155e+00 3.004543e-02
4.903565e-01 2.575150e+00 3.004359e-02
4.903684e-01 2.575144e+00 3.004175e-02
4.903804e-01 2.575139e+00 3.003990e-02
4.903924e-01 2.575133e+00 3.003806e-02
4.904044e-01 2.575128e+00 3.003622e-02
4.904163e-01 2.575123e+00 3.003438e-02
4.904283e-01 2.575117e+00 3.003254e-02
4.904403e-01 2.575112e+00 3.003070e-02
4.904523e-01 2.575106e+00 3.002886e-02
4.904642e-01 2.575101e+00 3.002702e-02
4.904762e-01 2.575095e+00 3.002517e-02
4.904882e-01 2.575090e+00 3.002333e-02
4.905002e-01 2.575085e+00 3.002149e-02
4.905121e-01 2.575079e+00 3.001965e-02
4.905241e-01 2.575074e+00 3.001781e-02
4.905361e-01 2.575068e+00 3.001597e-02
4.905481e-01 2.575063e+00 3.001413e-02
4.905600e-01 2.575057e+00 3.001229e-02
4.905720e-01 2.575052e+00 3.001045e-02
4.905840e-01 2.575046e+00 3.000860e-02
4.905960e-01 2.575041e+00 3.000676e-02
4.906079e-01 2.575036e+00 3.000492e-02
4.906199e-01 2.575030e+00 3.000308e-02
4.906319e-01 2.575025e+00 3.000124e-02
4.906439e-01 2.575019e+00 2.999940e-02
4.906558e-01 2.575014e+00 2.999756e-02
4.906678e-01 2.575008e+00 2.999572e-02
4.906798e-01 2.575003e+00 2.999387e-02
4.906917e-01 2.574998e+00 2.999203e-02
4.907037e-01 2.574992e+00 2.999019e-02
4.907157e-01 2.574987e+00 2.998835e-02
4.907277e-01 2.574981e+00 2.998651e-02
4.907396e-01 2.574976e+00 2.998467e-02
4.907516e-01 2.574970e+00 2.998283e-02
4.907636e-01 2.574965e+00 2.998099e-02
4.907756e-01 2.574959e+00 2.997914e-02
4.907875e-01 2.574954e+00 2.997730e-02
4.907995e-01 2.574949e+00 2.997546e-02
4.908115e-01 2.574943e+00 2.997362e-02
4.908235e-01 2.574938e+00 2.997178e-02
4.908354e-01 2.574932e+00 2.996994e-02
4.908474e-01 2.574927e+00 2.996810e-02
4.908594e-01 2.574921e+00 2.996626e-02
4.908714e-01 2.574916e+00 2.996441e-02
4.908833e-01 2.574911e+00 2.996257e-02
4.908953e-01 2.574905e+00 2.996073e-02
4.909073e-01 2.574900e+00 2.995889e-02
4.909193e-01 2.574894e+00 2.995705e-02
4.909312e-01 2.574889e+00 2.995521e-02
4.909432e-01 2.574883e+00 2.995337e-02
4.909552e-01 2.574878e+00 2.995153e-02
4.909672e-01 2.574873e+00 2.994968e-02
4.909791e-01 2.574867e+00 2.994784e-02
4.909911e-01 2.574862e+00 2.994600e-02
4.910031e-01 2.574856e+00 2.994416e-02
4.910151e-01 2.574851e+00 2.994232e-02
4.910270e-01 2.574845e+00 2.994048e-02
4.910390e-01 2.574840e+00 2.993864e-02
4.910510e-01 2.574834e+00 2.993680e-02
4.910630e-01 2.574829e+00 2.993495e-02
4.910749e-01 2.574824e+00 2.993311e-02
4.910869e-01 2.574818e+00 2.993127e-02
4.910989e-01 2.574813e+00 2.992943e-02
4.911109e-01 2.574807e+00 2.992759e-02
4.911228e-01 2.574802e+00 2.992575e-02
4.911348e-01 2.574796e+00 2.992391e-02
4.911468e-01 2.574791e+00 2.992207e-02
4.911587e-01 2.574786e+00 2.992022e-02
4.911707e-01 2.574780e+00 2.991838e-02
4.911827e-01 2.574775e+00 2.991654e-02
4.911947e-01 2.574769e+00 2.991470e-02
4.912066e-01 2.574764e+00 2.991286e-02
4.912186e-01 2.574758e+00 2.991102e-02
4.912306e-01 2.574753e+00 2.990918e-02
4.912426e-01 2.574747e+00 2.990734e-02
4.912545e-01 2.574742e+00 2.990549e-02
4.912665e-01 2.574737e+00 2.990365e-02
4.912785e-01 2.574731e+00 2.990181e-02
4.912905e-01 2.574726e+00 2.989997e-02
4.913024e-01 2.574720e+00 2.989813e-02
4.913144e-01 2.574715e+00 2.989629e-02
4.913264e-01 2.574709e+00 2.989445e-02
4.913384e-01 2.574704e+00 2.989261e-02
4.913503e-01 2.574699e+00 2.989076e-02
4.913623e-01 2.574693e+00 2.988892e-02
4.913743e-01 2.574688e+00 2.988708e-02
4.913863e-01 2.574682e+00 2.988524e-02
4.913982e-01 2.574677e+00 2.988340e-02
4.914102e-01 2.574671e+00 2.988156e-02
4.914222e-01 2.574666e+00 2.987972e-02
4.914342e-01 2.574660e+00 2.987788e-02
4.914461e-01 2.574655e+00 2.987603e-02
4.914581e-01 2.574650e+00 2.987419e-02
4.914701e-01 2.574644e+00 2.987235e-02
4.914821e-01 2.574639e+00 2.987051e-02
4.914940e-01 2.574633e+00 2.986867e-02
4.915060e-01 2.574628e+00 2.986683e-02
4.915180e-01 2.574622e+00 2.986499e-02
4.915300e-01 2.574617e+00 2.986315e-02
4.915419e-01 2.574612e+00 2.986130e-02
4.915539e-01 2.574606e+00 2.985946e-02
4.915659e-01 2.574601e+00 2.985762e-02
4.915779e-01 2.574595e+00 2.985578e-02
4.915898e-01 2.574590e+00 2.985394e-02
4.916018e-01 2.574584e+00 2.985210e-02
4.916138e-01 2.574579e+00 2.985026e-02
4.916257e-01 2.574573e+00 2.984842e-02
4.916377e-01 2.574568e+00 2.984657e-02
4.916497e-01 2.574563e+00 2.984473e-02
4.916617e-01 2.574557e+00 2.984289e-02
4.916736e-01 2.574552e+00 2.984105e-02
4.916856e-01 2.574546e+00 2.983921e-02
4.916976e-01 2.574541e+00 2.983737e-02
4.917096e-01 2.574535e+00 2.983553e-02
4.917215e-01 2.574530e+00 2.983369e-02
4.917335e-01 2.574525e+00 2.983184e-02
4.917455e-01 2.574519e+00 2.983000e-02
4.917575e-01 2.574514e+00 2.982816e-02
4.917694e-01 2.574508e+00 2.982632e-02
4.917814e-01 2.574503e+00 2.982448e-02
4.917934e-01 2.574497e+00 2.982264e-02
4.918054e-01 2.574492e+00 2.982080e-02
4.918173e-01 2.574487e+00 2.981896e-02
4.918293e-01 2.574481e+00 2.981711e-02
4.918413e-01 2.574476e+00 2.981527e-02
4.918533e-01 2.574470e+00 2.981343e-02
4.918652e-01 2.574465e+00 2.981159e-02
4.918772e-01 2.574459e+00 2.980975e-02
4.918892e-01 2.574454e+00 2.980791e-02
4.919012e-01 2.574448e+00 2.980607e-02
4.919131e-01 2.574443e+00 2.980423e-02
4.919251e-01 2.574438e+00 2.980238e-02
4.919371e-01 2.574432e+00 2.980054e-02
4.919491e-01 2.574427e+00 2.979870e-02
4.919610e-01 2.574421e+00 2.979686e-02
4.919730e-01 2.574416e+00 2.979502e-02
4.919850e-01 2.574410e+00 2.979318e-02
4.919970e-01 2.574405e+00 2.979134e-02
4.920089e-01 2.574400e+00 2.978950e-02
4.920209e-01 2.574394e+00 2.978765e-02
4.920329e-01 2.574389e+00 2.978581e-02
4.920449e-01 2.574383e+00 2.978397e-02
4.920568e-01 2.574378e+00 2.978213e-02
4.920688e-01 2.574372e+00 2.978029e-02
4.920808e-01 2.574367e+00 2.977845e-02
4.920927e-01 2.574361e+00 2.977661e-02
4.921047e-01 2.574356e+00 2.977477e-02
4.921167e-01 2.574351e+00 2.977292e-02
4.921287e-01 2.574345e+00 2.977108e-02
4.921406e-01 2.574340e+00 2.976924e-02
4.921526e-01 2.574334e+00 2.976740e-02
4.921646e-01 2.574329e+00 2.976556e-02
4.921766e-01 2.574323e+00 2.976372e-02
4.921885e-01 2.574318e+00 2.976188e-02
4.922005e-01 2.574313e+00 2.976004e-02
4.922125e-01 2.574307e+00 2.975819e-02
4.922245e-01 2.574302e+00 2.975635e-02
4.922364e-01 2.574296e+00 2.975451e-02
4.922484e-01 2.574291e+00 2.975267e-02
4.922604e-01 2.574285e+00 2.975083e-02
4.922724e-01 2.574280e+00 2.974899e-02
4.922843e-01 2.574274e+00 2.974715e-02
4.922963e-01 2.574269e+00 2.974531e-02
4.923083e-01 2.574264e+00 2.974346e-02
4.923203e-01 2.574258e+00 2.974162e-02
4.923322e-01 2.574253e+00 2.973978e-02
4.923442e-01 2.574247e+00 2.973794e-02
4.923562e-01 2.574242e+00 2.973610e-02
4.923682e-01 2.574236e+00 2.973426e-02
4.923801e-01 2.574231e+00 2.973242e-02
4.923921e-01 2.574226e+00 2.973058e-02
4.924041e-01 2.574220e+00 2.972873e-02
4.924161e-01 2.574215e+00 2.972689e-02
4.924280e-01 2.574209e+00 2.972505e-02
4.924400e-01 2.574204e+00 2.972321e-02
4.924520e-01 2.574198e+00 2.972137e-02
4.924640e-01 2.574193e+00 2.971953e-02
4.924759e-01 2.574187e+00 2.971769e-02
4.924879e-01 2.574182e+00 2.971585e-02
4.924999e-01 2.574177e+00 2.971400e-02
4.925119e-01 2.574171e+00 2.971216e-02
4.925238e-01 2.574166e+00 2.971032e-02
4.925358e-01 2.574160e+00 2.970848e-02
4.925478e-01 2.574155e+00 2.970664e-02
4.925597e-01 2.574149e+00 2.970480e-02
4.925717e-01 2.574144e+00 2.970296e-02
4.925837e-01 2.574139e+00 2.970112e-02
4.925957e-01 2.574133e+00 2.969927e-02
4.926076e-01 2.574128e+00 2.969743e-02
4.926196e-01 2.574122e+00 2.969559e-02
4.926316e-01 2.574117e+00 2.969375e-02
4.926436e-01 2.574111e+00 2.969191e-02
4.926555e-01 2.574106e+00 2.969007e-02
4.926675e-01 2.574100e+00 2.968823e-02
4.926795e-01 2.574095e+00 2.968639e-02
4.926915e-01 2.574090e+00 2.968454e-02
4.927034e-01 2.574084e+00 2.968270e-02
4.927154e-01 2.574079e+00 2.968086e-02
4.927274e-01 2.574073e+00 2.967902e-02
4.927394e-01 2.574068e+00 2.967718e-02
4.927513e-01 2.574062e+00 2.967534e-02
4.927633e-01 2.574057e+00 2.967350e-02
4.927753e-01 2.574052e+00 2.967166e-02
4.927873e-01 2.574046e+00 2.966982e-02
4.927992e-01 2.574041e+00 2.966797e-02
4.928112e-01 2.574035e+00 2.966613e-02
4.928232e-01 2.574030e+00 2.966429e-02
4.928352e-01 2.574024e+00 2.966245e-02
4.928471e-01 2.574019e+00 2.966061e-02
4.928591e-01 2.574014e+00 2.965877e-02
4.928711e-01 2.574008e+00 2.965693e-02
4.928831e-01 2.574003e+00 2.965509e-02
4.928950e-01 2.573997e+00 2.965324e-02
4.929070e-01 2.573992e+00 2.965140e-02
4.929190e-01 2.573986e+00 2.964956e-02
4.929310e-01 2.573981e+00 2.964772e-02
4.929429e-01 2.573975e+00 2.964588e-02
4.929549e-01 2.573970e+00 2.964404e-02
4.929669e-01 2.573965e+00 2.964220e-02
4.929789e-01 2.573959e+00 2.964036e-02
4.929908e-01 2.573954e+00 2.963851e-02
4.930028e-01 2.573948e+00 2.963667e-02
4.930148e-01 2.573943e+00 2.963483e-02
4.930267e-01 2.573937e+00 2.963299e-02
4.930387e-01 2.573932e+00 2.963115e-02
4.930507e-01 2.573927e+00 2.962931e-02
4.930627e-01 2.573921e+00 2.962747e-02
4.930746e-01 2.573916e+00 2.962563e-02
4.930866e-01 2.573910e+00 2.962378e-02
4.930986e-01 2.573905e+00 2.962194e-02
4.931106e-01 2.573899e+00 2.962010e-02
4.931225e-01 2.573894e+00 2.961826e-02
4.931345e-01 2.573888e+00 2.961642e-02
4.931465e-01 2.573883e+00 2.961458e-02
4.931585e-01 2.573878e+00 2.961274e-02
4.931704e-01 2.573872e+00 2.961090e-02
4.931824e-01 2.573867e+00 2.960905e-02
4.931944e-01 2.573861e+00 2.960721e-02
4.932064e-01 2.573856e+00 2.960537e-02
4.932183e-01 2.573850e+00 2.960353e-02
4.932303e-01 2.573845e+00 2.960169e-02
4.932423e-01 2.573840e+00 2.959985e-02
4.932543e-01 2.573834e+00 2.959801e-02
4.932662e-01 2.573829e+00 2.959617e-02
4.932782e-01 2.573823e+00 2.959432e-02
4.932902e-01 2.573818e+00 2.959248e-02
4.933022e-01 2.573812e+00 2.959064e-02
4.933141e-01 2.573807e+00 2.958880e-02
4.933261e-01 2.573801e+00 2.958696e-02
4.933381e-01 2.573796e+00 2.958512e-02
4.933501e-01 2.573791e+00 2.958328e-02
4.933620e-01 2.573785e+00 2.958144e-02
4.933740e-01 2.573780e+00 2.957959e-02
4.933860e-01 2.573774e+00 2.957775e-02
4.933980e-01 2.573769e+00 2.957591e-02
4.934099e-01 2.573763e+00 2.957407e-02
4.934219e-01 2.573758e+00 2.957223e-02
4.934339e-01 2.573753e+00 2.957039e-02
4.934459e-01 2.573747e+00 2.956855e-02
4.934578e-01 2.573742e+00 2.956671e-02
4.934698e-01 2.573736e+00 2.956486e-02
4.934818e-01 2.573731e+00 2.956302e-02
4.934938e-01 2.573725e+00 2.956118e-02
4.935057e-01 2.573720e+00 2.955934e-02
4.935177e-01 2.573714e+00 2.955750e-02
4.935297e-01 2.573709e+00 2.955566e-02
4.935416e-01 2.573704e+00 2.955382e-02
4.935536e-01 2.573698e+00 2.955198e-02
4.935656e-01 2.573693e+00 2.955013e-02
4.935776e-01 2.573687e+00 2.954829e-02
4.935895e-01 2.573682e+00 2.954645e-02
4.936015e-01 2.573676e+00 2.954461e-02
4.936135e-01 2.573671e+00 2.954277e-02
4.936255e-01 2.573666e+00 2.954093e-02
4.936374e-01 2.573660e+00 2.953909e-02
4.936494e-01 2.573655e+00 2.953725e-02
4.936614e-01 2.573649e+00 2.953540e-02
4.936734e-01 2.573644e+00 2.953356e-02
4.936853e-01 2.573638e+00 2.953172e-02
4.936973e-01 2.573633e+00 2.952988e-02
4.937093e-01 2.573628e+00 2.952804e-02
4.937213e-01 2.573622e+00 2.952620e-02
4.937332e-01 2.573617e+00 2.952436e-02
4.937452e-01 2.573611e+00 2.952252e-02
4.937572e-01 2.573606e+00 2.952067e-02
4.937692e-01 2.573600e+00 2.951883e-02
4.937811e-01 2.573595e+00 2.951699e-02
4.937931e-01 2.573589e+00 2.951515e-02
4.938051e-01 2.573584e+00 2.951331e-02
4.938171e-01 2.573579e+00 2.951147e-02
4.938290e-01 2.573573e+00 2.950963e-02
4.938410e-01 2.573568e+00 2.950779e-02
4.938530e-01 2.573562e+00 2.950594e-02
4.938650e-01 2.573557e+00 2.950410e-02
4.938769e-01 2.573551e+00 2.950226e-02
4.938889e-01 2.573546e+00 2.950042e-02
4.939009e-01 2.573541e+00 2.949858e-02
4.939129e-01 2.573535e+00 2.949674e-02
4.939248e-01 2.573530e+00 2.949490e-02
4.939368e-01 2.573524e+00 2.949306e-02
4.939488e-01 2.573519e+00 2.949121e-02
4.939608e-01 2.573513e+00 2.948937e-02
4.939727e-01 2.573508e+00 2.948753e-02
4.939847e-01 2.573502e+00 2.948569e-02
4.939967e-01 2.573497e+00 2.948385e-02
4.940086e-01 2.573492e+00 2.948201e-02
4.940206e-01 2.573486e+00 2.948017e-02
4.940326e-01 2.573481e+00 2.947833e-02
4.940446e-01 2.573475e+00 2.947648e-02
4.940565e-01 2.573470e+00 2.947464e-02
4.940685e-01 2.573464e+00 2.947280e-02
4.940805e-01 2.573459e+00 2.947096e-02
4.940925e-01 2.573454e+00 2.946912e-02
4.941044e-01 2.573448e+00 2.946728e-02
4.941164e-01 2.573443e+00 2.946544e-02
4.941284e-01 2.573437e+00 2.946360e-02
4.941404e-01 2.573432e+00 2.946175e-02
4.941523e-01 2.573426e+00 2.945991e-02
4.941643e-01 2.573421e+00 2.945807e-02
4.941763e-01 2.573415e+00 2.945623e-02
4.941883e-01 2.573410e+00 2.945439e-02
4.942002e-01 2.573405e+00 2.945255e-02
4.942122e-01 2.573399e+00 2.945071e-02
4.942242e-01 2.573394e+00 2.944887e-02
4.942362e-01 2.573388e+00 2.944702e-02
4.942481e-01 2.573383e+00 2.944518e-02
4.942601e-01 2.573377e+00 2.944334e-02
4.942721e-01 2.573372e+00 2.944150e-02
4.942841e-01 2.573367e+00 2.943966e-02
4.942960e-01 2.573361e+00 2.943782e-02
4.943080e-01 2.573356e+00 2.943598e-02
4.943200e-01 2.573350e+00 2.943414e-02
4.943320e-01 2.573345e+00 2.943229e-02
4.943439e-01 2.573339e+00 2.943045e-02
4.943559e-01 2.573334e+00 2.942861e-02
4.943679e-01 2.573328e+00 2.942677e-02
4.943799e-01 2.573323e+00 2.942493e-02
4.943918e-01 2.573318e+00 2.942309e-02
4.944038e-01 2.573312e+00 2.942125e-02
4.944158e-01 2.573307e+00 2.941941e-02
4.944278e-01 2.573301e+00 2.941756e-02
4.944397e-01 2.573296e+00 2.941572e-02
4.944517e-01 2.573290e+00 2.941388e-02
4.944637e-01 2.573285e+00 2.941204e-02
4.944756e-01 2.573280e+00 2.941020e-02
4.944876e-01 2.573274e+00 2.940836e-02
4.944996e-01 2.573269e+00 2.940652e-02
4.945116e-01 2.573263e+00 2.940468e-02
4.945235e-01 2.573258e+00 2.940283e-02
4.945355e-01 2.573252e+00 2.940099e-02
4.945475e-01 2.573247e+00 2.939915e-02
4.945595e-01 2.573242e+00 2.939731e-02
4.945714e-01 2.573236e+00 2.939547e-02
4.945834e-01 2.573231e+00 2.939363e-02
4.945954e-01 2.573225e+00 2.939179e-02
4.946074e-01 2.573220e+00 2.938995e-02
4.946193e-01 2.573214e+00 2.938810e-02
4.946313e-01 2.573209e+00 2.938626e-02
4.946433e-01 2.573203e+00 2.938442e-02
4.946553e-01 2.573198e+00 2.938258e-02
4.946672e-01 2.573193e+00 2.938074e-02
4.946792e-01 2.573187e+00 2.937890e-02
4.946912e-01 2.573182e+00 2.937706e-02
4.947032e-01 2.573176e+00 2.937522e-02
4.947151e-01 2.573171e+00 2.937337e-02
4.947271e-01 2.573165e+00 2.937153e-02
4.947391e-01 2.573160e+00 2.936969e-02
4.947511e-01 2.573155e+00 2.936785e-02
4.947630e-01 2.573149e+00 2.936601e-02
4.947750e-01 2.573144e+00 2.936417e-02
4.947870e-01 2.573138e+00 2.936233e-02
4.947990e-01 2.573133e+00 2.936049e-02
4.948109e-01 2.573127e+00 2.935864e-02
4.948229e-01 2.573122e+00 2.935680e-02
4.948349e-01 2.573116e+00 2.935496e-02
4.948469e-01 2.573111e+00 2.935312e-02
4.948588e-01 2.573106e+00 2.935128e-02
4.948708e-01 2.573100e+00 2.934944e-02
4.948828e-01 2.573095e+00 2.934760e-02
4.948948e-01 2.573089e+00 2.934576e-02
4.949067e-01 2.573084e+00 2.934391e-02
4.949187e-01 2.573078e+00 2.934207e-02
4.949307e-01 2.573073e+00 2.934023e-02
4.949426e-01 2.573068e+00 2.933839e-02
4.949546e-01 2.573062e+00 2.933655e-02
4.949666e-01 2.573057e+00 2.933471e-02
4.949786e-01 2.573051e+00 2.933287e-02
4.949905e-01 2.573046e+00 2.933103e-02
4.950025e-01 2.573040e+00 2.932919e-02
4.950145e-01 2.573035e+00 2.932734e-02
4.950265e-01 2.573029e+00 2.932550e-02
4.950384e-01 2.573024e+00 2.932366e-02
4.950504e-01 2.573019e+00 2.932182e-02
4.950624e-01 2.573013e+00 2.931998e-02
4.950744e-01 2.573008e+00 2.931814e-02
4.950863e-01 2.573002e+00 2.931630e-02
4.950983e-01 2.572997e+00 2.931446e-02
4.951103e-01 2.572991e+00 2.931261e-02
4.951223e-01 2.572986e+00 2.931077e-02
4.951342e-01 2.572981e+00 2.930893e-02
4.951462e-01 2.572975e+00 2.930709e-02
4.951582e-01 2.572970e+00 2.930525e-02
4.951702e-01 2.572964e+00 2.930341e-02
4.951821e-01 2.572959e+00 2.930157e-02
4.951941e-01 2.572953e+00 2.929973e-02
4.952061e-01 2.572948e+00 2.929788e-02
4.952181e-01 2.572942e+00 2.929604e-02
4.952300e-01 2.572937e+00 2.929420e-02
4.952420e-01 2.572932e+00 2.929236e-02
4.952540e-01 2.572926e+00 2.929052e-02
4.952660e-01 2.572921e+00 2.928868e-02
4.952779e-01 2.572915e+00 2.928684e-02
4.952899e-01 2.572910e+00 2.928500e-02
4.953019e-01 2.572904e+00 2.928315e-02
4.953139e-01 2.572899e+00 2.928131e-02
4.953258e-01 2.572894e+00 2.927947e-02
4.953378e-01 2.572888e+00 2.927763e-02
4.953498e-01 2.572883e+00 2.927579e-02
4.953618e-01 2.572877e+00 2.927395e-02
